ref_gps_x (m),ref_gps_y (m),ref_gps_z (m),ref_gps_vx (m/s),ref_gps_vy (m/s),ref_gps_vz (m/s)
-2.849886618250875268e+06,4.656214272941934876e+06,3.287190600463123061e+06,5.000000000000000000e+00,0.000000000000000000e+00,0.000000000000000000e+00
-2.849886568250875454e+06,4.656214272941934876e+06,3.287190600463123061e+06,4.999999923845645178e+00,8.726646215666837483e-04,0.000000000000000000e+00
-2.849886518250876106e+06,4.656214272950661369e+06,3.287190600463123061e+06,4.999999359541888566e+00,2.530727307336782736e-03,0.000000000000000000e+00
-2.849886468250882346e+06,4.656214272975969128e+06,3.287190600463123061e+06,4.999997603262716694e+00,4.895647769605174227e-03,0.000000000000000000e+00
-2.849886418250906281e+06,4.656214273024925031e+06,3.287190600463123061e+06,4.999993764147557584e+00,7.896738917786794848e-03,0.000000000000000000e+00
-2.849886368250968866e+06,4.656214273103892803e+06,3.287190600463123061e+06,4.999986843018547233e+00,1.147038104951935908e-02,0.000000000000000000e+00
-2.849886318251100369e+06,4.656214273218596354e+06,3.287190600463123061e+06,4.999975790714173307e+00,1.555931464345371856e-02,0.000000000000000000e+00
-2.849886268251342233e+06,4.656214273374189623e+06,3.287190600463123061e+06,4.999959550566187794e+00,2.011200392713904939e-02,0.000000000000000000e+00
-2.849886218251747079e+06,4.656214273575309664e+06,3.287190600463123061e+06,4.999937088609979874e+00,2.508206415667988895e-02,0.000000000000000000e+00
-2.849886168252375908e+06,4.656214273826130666e+06,3.287190600463123061e+06,4.999907414368668590e+00,3.042774623944998272e-02,0.000000000000000000e+00
-2.849886118253301829e+06,4.656214274130407721e+06,3.287190600463123061e+06,4.999869594451495480e+00,3.611147296134988027e-02,0.000000000000000000e+00
-2.849886068254605867e+06,4.656214274491522461e+06,3.287190600463123061e+06,4.999822760728292792e+00,4.209942165054211122e-02,0.000000000000000000e+00
-2.849886018256378360e+06,4.656214274912516586e+06,3.287190600463123061e+06,4.999766114460121536e+00,4.836114862505211387e-02,0.000000000000000000e+00
-2.849885968258717097e+06,4.656214275396128185e+06,3.287190600463123061e+06,4.999698927462404185e+00,5.486925123676957700e-02,0.000000000000000000e+00
-2.849885918261727784e+06,4.656214275944820605e+06,3.287190600463123061e+06,4.999620541135686658e+00,6.159906374371845045e-02,0.000000000000000000e+00
-2.849885868265522644e+06,4.656214276560811326e+06,3.287190600463123061e+06,4.999530364008043293e+00,6.852838362021736185e-02,0.000000000000000000e+00
-2.849885818270219024e+06,4.656214277246095240e+06,3.287190600463123061e+06,4.999427868282106502e+00,7.563722525466688718e-02,0.000000000000000000e+00
-2.849885768275940325e+06,4.656214278002467006e+06,3.287190600463123061e+06,4.999312585760731231e+00,8.290759829080651677e-02,0.000000000000000000e+00
-2.849885718282814138e+06,4.656214278831543401e+06,3.287190600463123061e+06,4.999184103431876913e+00,9.032330814370957695e-02,0.000000000000000000e+00
-2.849885668290973175e+06,4.656214279734776355e+06,3.287190600463123061e+06,4.999042058920268872e+00,9.786977646955909160e-02,0.000000000000000000e+00
-2.849885618300552480e+06,4.656214280713474378e+06,3.287190600463123061e+06,4.998886135956533749e+00,1.055338795911215655e-01,0.000000000000000000e+00
-2.849885568311691284e+06,4.656214281768812798e+06,3.287190600463123061e+06,4.998716059970531589e+00,1.133038030813002528e-01,0.000000000000000000e+00
-2.849885518324530683e+06,4.656214282901851460e+06,3.287190600463123061e+06,4.998531593881781809e+00,1.211689108874520471e-01,0.000000000000000000e+00
-2.849885468339215033e+06,4.656214284113540314e+06,3.287190600463123061e+06,4.998332534134117822e+00,1.291196275413219463e-01,0.000000000000000000e+00
-2.849885418355889618e+06,4.656214285404736176e+06,3.287190600463123061e+06,4.998118707002207728e+00,1.371473321453112459e-01,0.000000000000000000e+00
-2.849885368374702521e+06,4.656214286776210181e+06,3.287190600463123061e+06,4.997889965183114569e+00,1.452442629569976329e-01,0.000000000000000000e+00
-2.849885318395802751e+06,4.656214288228652440e+06,3.287190600463123061e+06,4.997646184675381242e+00,1.534034315118408542e-01,0.000000000000000000e+00
-2.849885268419340719e+06,4.656214289762686938e+06,3.287190600463123061e+06,4.997387261940518854e+00,1.616185453301727248e-01,0.000000000000000000e+00
-2.849885218445468228e+06,4.656214291378872469e+06,3.287190600463123061e+06,4.997113111336451752e+00,1.698839383500748423e-01,0.000000000000000000e+00
-2.849885168474337086e+06,4.656214293077711947e+06,3.287190600463123061e+06,4.996823662808889566e+00,1.781945083136684538e-01,0.000000000000000000e+00
-2.849885118506100494e+06,4.656214294859657064e+06,3.287190600463123061e+06,4.996518859824466752e+00,1.865456604116449701e-01,0.000000000000000000e+00
-2.849885068540912122e+06,4.656214296725112945e+06,3.287190600463123061e+06,4.996198657528216458e+00,1.949332565604169898e-01,0.000000000000000000e+00
-2.849885018578925170e+06,4.656214298674445599e+06,3.287190600463123061e+06,4.995863021107604496e+00,2.033535697488519922e-01,0.000000000000000000e+00
-2.849884968620295171e+06,4.656214300707981922e+06,3.287190600463123061e+06,4.995511924345368726e+00,2.118032429478625689e-01,0.000000000000000000e+00
-2.849884918665175792e+06,4.656214302826014347e+06,3.287190600463123061e+06,4.995145348343975833e+00,2.202792521267998571e-01,0.000000000000000000e+00
-2.849884868713722564e+06,4.656214305028806441e+06,3.287190600463123061e+06,4.994763280405220662e+00,2.287788729661949794e-01,0.000000000000000000e+00
-2.849884818766089622e+06,4.656214307316594757e+06,3.287190600463123061e+06,4.994365713049451649e+00,2.372996508974291319e-01,0.000000000000000000e+00
-2.849884768822432496e+06,4.656214309689591639e+06,3.287190600463123061e+06,4.993952643159925486e+00,2.458393741368417318e-01,0.000000000000000000e+00
-2.849884718882906251e+06,4.656214312147985213e+06,3.287190600463123061e+06,4.993524071238871542e+00,2.543960494150200313e-01,0.000000000000000000e+00
-2.849884668947665486e+06,4.656214314691945910e+06,3.287190600463123061e+06,4.993080000762947890e+00,2.629678801319241810e-01,0.000000000000000000e+00
-2.849884619016865268e+06,4.656214317321624607e+06,3.287190600463123061e+06,4.992620437626835717e+00,2.715532466954213020e-01,0.000000000000000000e+00
-2.849884569090661127e+06,4.656214320037157275e+06,3.287190600463123061e+06,4.992145389664734090e+00,2.801506888250285821e-01,0.000000000000000000e+00
-2.849884519169207197e+06,4.656214322838664055e+06,3.287190600463123061e+06,4.991654866240537558e+00,2.887588896244729364e-01,0.000000000000000000e+00
-2.849884469252658542e+06,4.656214325726252981e+06,3.287190600463123061e+06,4.991148877898354819e+00,2.973766612462973580e-01,0.000000000000000000e+00
-2.849884419341169763e+06,4.656214328700019978e+06,3.287190600463123061e+06,4.990627436065918410e+00,3.060029319894121969e-01,0.000000000000000000e+00
-2.849884369434895460e+06,4.656214331760048866e+06,3.287190600463123061e+06,4.990090552804216983e+00,3.146367346863837011e-01,0.000000000000000000e+00
-2.849884319533989765e+06,4.656214334906416014e+06,3.287190600463123061e+06,4.989538240597392260e+00,3.232771962515669228e-01,0.000000000000000000e+00
-2.849884269638607278e+06,4.656214338139188476e+06,3.287190600463123061e+06,4.988970512177647088e+00,3.319235282740657378e-01,0.000000000000000000e+00
-2.849884219748902135e+06,4.656214341458423994e+06,3.287190600463123061e+06,4.988387380380449265e+00,3.405750185510975081e-01,0.000000000000000000e+00
-2.849884169865028467e+06,4.656214344864173792e+06,3.287190600463123061e+06,4.987788858025933969e+00,3.492310234677749037e-01,0.000000000000000000e+00
-2.849884119987139944e+06,4.656214348356483504e+06,3.287190600463123061e+06,4.987174957822836596e+00,3.578909611387077749e-01,0.000000000000000000e+00
-2.849884070115390234e+06,4.656214351935393177e+06,3.287190600463123061e+06,4.986545692291757703e+00,3.665543052352816522e-01,0.000000000000000000e+00
-2.849884020249933470e+06,4.656214355600936338e+06,3.287190600463123061e+06,4.985901073704948061e+00,3.752205794300805808e-01,0.000000000000000000e+00
-2.849883970390922390e+06,4.656214359353142790e+06,3.287190600463123061e+06,4.985241114040161570e+00,3.838893523967654708e-01,0.000000000000000000e+00
-2.849883920538511593e+06,4.656214363192035817e+06,3.287190600463123061e+06,4.984565824946409762e+00,3.925602333098905383e-01,0.000000000000000000e+00
-2.849883870692853350e+06,4.656214367117638700e+06,3.287190600463123061e+06,4.983875217719766937e+00,4.012328677946818134e-01,0.000000000000000000e+00
-2.849883820854100864e+06,4.656214371129967272e+06,3.287190600463123061e+06,4.983169303287587226e+00,4.099069342818001394e-01,0.000000000000000000e+00
-2.849883771022407804e+06,4.656214375229036435e+06,3.287190600463123061e+06,4.982448092199730283e+00,4.185821407266054339e-01,0.000000000000000000e+00
-2.849883721197926905e+06,4.656214379414857365e+06,3.287190600463123061e+06,4.981711594625580553e+00,4.272582216564834723e-01,0.000000000000000000e+00
-2.849883671380810905e+06,4.656214383687440306e+06,3.287190600463123061e+06,4.980959820355800538e+00,4.359349355134390924e-01,0.000000000000000000e+00
-2.849883621571213007e+06,4.656214388046788983e+06,3.287190600463123061e+06,4.980192778807939646e+00,4.446120622624383789e-01,0.000000000000000000e+00
-2.849883571769285016e+06,4.656214392492909916e+06,3.287190600463123061e+06,4.979410479035088599e+00,4.532894012389302452e-01,0.000000000000000000e+00
-2.849883521975180134e+06,4.656214397025804035e+06,3.287190600463123061e+06,4.978612929736972781e+00,4.619667692116364854e-01,0.000000000000000000e+00
-2.849883472189051099e+06,4.656214401645471342e+06,3.287190600463123061e+06,4.977800139272870794e+00,4.706439986390863472e-01,0.000000000000000000e+00
-2.849883422411049716e+06,4.656214406351911835e+06,3.287190600463123061e+06,4.976972115675927455e+00,4.793209361005251190e-01,0.000000000000000000e+00
-2.849883372641328257e+06,4.656214411145120859e+06,3.287190600463123061e+06,4.976128866668436679e+00,4.879974408837618460e-01,0.000000000000000000e+00
-2.849883322880039923e+06,4.656214416025095619e+06,3.287190600463123061e+06,4.975270399677772737e+00,4.966733837142639496e-01,0.000000000000000000e+00
-2.849883273127335589e+06,4.656214420991829596e+06,3.287190600463123061e+06,4.974396721852686554e+00,5.053486456113746028e-01,0.000000000000000000e+00
-2.849883223383368459e+06,4.656214426045315340e+06,3.287190600463123061e+06,4.973507840079737896e+00,5.140231168589431965e-01,0.000000000000000000e+00
-2.849883173648290336e+06,4.656214431185547262e+06,3.287190600463123061e+06,4.972603760999681377e+00,5.226966960789251049e-01,0.000000000000000000e+00
-2.849883123922252562e+06,4.656214436412514187e+06,3.287190600463123061e+06,4.971684491023643737e+00,5.313692893976564857e-01,0.000000000000000000e+00
-2.849883074205407873e+06,4.656214441726206802e+06,3.287190600463123061e+06,4.970750036348980494e+00,5.400408096955350290e-01,0.000000000000000000e+00
-2.849883024497907143e+06,4.656214447126614861e+06,3.287190600463123061e+06,4.969800402974708931e+00,5.487111759317653270e-01,0.000000000000000000e+00
-2.849882974799903110e+06,4.656214452613726258e+06,3.287190600463123061e+06,4.968835596716450809e+00,5.573803125366629807e-01,0.000000000000000000e+00
-2.849882925111547112e+06,4.656214458187529817e+06,3.287190600463123061e+06,4.967855623220826189e+00,5.660481488647594039e-01,0.000000000000000000e+00
-2.849882875432990957e+06,4.656214463848011568e+06,3.287190600463123061e+06,4.966860487979252170e+00,5.747146187026277442e-01,0.000000000000000000e+00
-2.849882825764385983e+06,4.656214469595157541e+06,3.287190600463123061e+06,4.965850196341141221e+00,5.833796598259558541e-01,0.000000000000000000e+00
-2.849882776105884463e+06,4.656214475428953767e+06,3.287190600463123061e+06,4.964824753526459133e+00,5.920432136009405877e-01,0.000000000000000000e+00
-2.849882726457636803e+06,4.656214481349386275e+06,3.287190600463123061e+06,4.963784164637655039e+00,6.007052246255719652e-01,0.000000000000000000e+00
-2.849882676819795277e+06,4.656214487356438302e+06,3.287190600463123061e+06,4.962728434670951927e+00,6.093656404068147348e-01,0.000000000000000000e+00
-2.849882627192510758e+06,4.656214493450094946e+06,3.287190600463123061e+06,4.961657568527019890e+00,6.180244110700984228e-01,0.000000000000000000e+00
-2.849882577575935051e+06,4.656214499630338512e+06,3.287190600463123061e+06,4.960571571021031190e+00,6.266814890978831265e-01,0.000000000000000000e+00
-2.849882527970219497e+06,4.656214505897154100e+06,3.287190600463123061e+06,4.959470446892115802e+00,6.353368290943933738e-01,0.000000000000000000e+00
-2.849882478375514969e+06,4.656214512250522152e+06,3.287190600463123061e+06,4.958354200812243207e+00,6.439903875739010353e-01,0.000000000000000000e+00
-2.849882428791972809e+06,4.656214518690425903e+06,3.287190600463123061e+06,4.957222837394542836e+00,6.526421227702023931e-01,0.000000000000000000e+00
-2.849882379219744354e+06,4.656214525216846727e+06,3.287190600463123061e+06,4.956076361201094294e+00,6.612919944651689530e-01,0.000000000000000000e+00
-2.849882329658980947e+06,4.656214531829766929e+06,3.287190600463123061e+06,4.954914776750199756e+00,6.699399638344631924e-01,0.000000000000000000e+00
-2.849882280109832995e+06,4.656214538529166952e+06,3.287190600463123061e+06,4.953738088523174987e+00,6.785859933087030615e-01,0.000000000000000000e+00
-2.849882230572452303e+06,4.656214545315026306e+06,3.287190600463123061e+06,4.952546300970678494e+00,6.872300464485281424e-01,0.000000000000000000e+00
-2.849882181046989281e+06,4.656214552187327296e+06,3.287190600463123061e+06,4.951339418518597491e+00,6.958720878321775771e-01,0.000000000000000000e+00
-2.849882131533594802e+06,4.656214559146047570e+06,3.287190600463123061e+06,4.950117445573524400e+00,7.045120829543276564e-01,0.000000000000000000e+00
-2.849882082032420672e+06,4.656214566191168502e+06,3.287190600463123061e+06,4.948880386527841679e+00,7.131499981350624129e-01,0.000000000000000000e+00
-2.849882032543616835e+06,4.656214573322668672e+06,3.287190600463123061e+06,4.947628245764441601e+00,7.217858004379634762e-01,0.000000000000000000e+00
-2.849881983067334164e+06,4.656214580540526658e+06,3.287190600463123061e+06,4.946361027661099641e+00,7.304194575964052527e-01,0.000000000000000000e+00
-2.849881933603723999e+06,4.656214587844721042e+06,3.287190600463123061e+06,4.945078736594525459e+00,7.390509379472377516e-01,0.000000000000000000e+00
-2.849881884152936749e+06,4.656214595235230401e+06,3.287190600463123061e+06,4.943781376944111017e+00,7.476802103711135405e-01,0.000000000000000000e+00
-2.849881834715122823e+06,4.656214602712032385e+06,3.287190600463123061e+06,4.942468953095397133e+00,7.563072442387970273e-01,0.000000000000000000e+00
-2.849881785290433094e+06,4.656214610275105573e+06,3.287190600463123061e+06,4.941141469443280698e+00,7.649320093628557693e-01,0.000000000000000000e+00
-2.849881735879018437e+06,4.656214617924425751e+06,3.287190600463123061e+06,4.939798930394963428e+00,7.735544759541965742e-01,0.000000000000000000e+00
-2.849881686481029261e+06,4.656214625659970567e+06,3.287190600463123061e+06,4.938441340372689226e+00,7.821746145829595598e-01,0.000000000000000000e+00
-2.849881637096615974e+06,4.656214633481716737e+06,3.287190600463123061e+06,4.937068703816251514e+00,7.907923961433366289e-01,0.000000000000000000e+00
-2.849881587725928985e+06,4.656214641389640048e+06,3.287190600463123061e+06,4.935681025185319371e+00,7.994077918219183454e-01,0.000000000000000000e+00
-2.849881538369118702e+06,4.656214649383718148e+06,3.287190600463123061e+06,4.934278308961567383e+00,8.080207730692190449e-01,0.000000000000000000e+00
-2.849881489026335534e+06,4.656214657463925891e+06,3.287190600463123061e+06,4.932860559650640297e+00,8.166313115740606587e-01,0.000000000000000000e+00
-2.849881439697729889e+06,4.656214665630239062e+06,3.287190600463123061e+06,4.931427781783964015e+00,8.252393792405287032e-01,0.000000000000000000e+00
-2.849881390383452177e+06,4.656214673882632516e+06,3.287190600463123061e+06,4.929979979920402045e+00,8.338449481672438601e-01,0.000000000000000000e+00
-2.849881341083652340e+06,4.656214682221082039e+06,3.287190600463123061e+06,4.928517158647784946e+00,8.424479906287176689e-01,0.000000000000000000e+00
-2.849881291798480786e+06,4.656214690645562485e+06,3.287190600463123061e+06,4.927039322584311876e+00,8.510484790585817194e-01,0.000000000000000000e+00
-2.849881242528087460e+06,4.656214699156046845e+06,3.287190600463123061e+06,4.925546476379835781e+00,8.596463860345053831e-01,0.000000000000000000e+00
-2.849881193272622768e+06,4.656214707752510905e+06,3.287190600463123061e+06,4.924038624717043788e+00,8.682416842646307753e-01,0.000000000000000000e+00
-2.849881144032236654e+06,4.656214716434927657e+06,3.287190600463123061e+06,4.922515772312541671e+00,8.768343465753749566e-01,0.000000000000000000e+00
-2.849881094807078596e+06,4.656214725203271024e+06,3.287190600463123061e+06,4.920977923917840613e+00,8.854243459004609296e-01,0.000000000000000000e+00
-2.849881045597299468e+06,4.656214734057514928e+06,3.287190600463123061e+06,4.919425084320271147e+00,8.940116552710558606e-01,0.000000000000000000e+00
-2.849880996403048746e+06,4.656214742997631431e+06,3.287190600463123061e+06,4.917857258343810045e+00,9.025962478069036177e-01,0.000000000000000000e+00
-2.849880947224475909e+06,4.656214752023593523e+06,3.287190600463123061e+06,4.916274450849844158e+00,9.111780967083547011e-01,0.000000000000000000e+00
-2.849880898061731365e+06,4.656214761135374196e+06,3.287190600463123061e+06,4.914676666737864963e+00,9.197571752492017527e-01,0.000000000000000000e+00
-2.849880848914965056e+06,4.656214770332946442e+06,3.287190600463123061e+06,4.913063910946102730e+00,9.283334567702400397e-01,0.000000000000000000e+00
-2.849880799784325995e+06,4.656214779616280459e+06,3.287190600463123061e+06,4.911436188452112717e+00,9.369069146734821940e-01,0.000000000000000000e+00
-2.849880750669964124e+06,4.656214788985350169e+06,3.287190600463123061e+06,4.909793504273300080e+00,9.454775224169591485e-01,0.000000000000000000e+00
-2.849880701572028920e+06,4.656214798440124840e+06,3.287190600463123061e+06,4.908135863467406601e+00,9.540452535100498732e-01,0.000000000000000000e+00
-2.849880652490670327e+06,4.656214807980577461e+06,3.287190600463123061e+06,4.906463271132952997e+00,9.626100815092883956e-01,0.000000000000000000e+00
-2.849880603426037356e+06,4.656214817606678233e+06,3.287190600463123061e+06,4.904775732409641265e+00,9.711719800145957038e-01,0.000000000000000000e+00
-2.849880554378280416e+06,4.656214827318398282e+06,3.287190600463123061e+06,4.903073252478717059e+00,9.797309226659003389e-01,0.000000000000000000e+00
-2.849880505347547587e+06,4.656214837115707807e+06,3.287190600463123061e+06,4.901355836563308976e+00,9.882868831401039333e-01,0.000000000000000000e+00
-2.849880456333989277e+06,4.656214846998576075e+06,3.287190600463123061e+06,4.899623489928730535e+00,9.968398351483582776e-01,0.000000000000000000e+00
-2.849880407337754499e+06,4.656214856966975145e+06,3.287190600463123061e+06,4.897876217882752847e+00,1.005389752433623274e+00,0.000000000000000000e+00
-2.849880358358992264e+06,4.656214867020872422e+06,3.287190600463123061e+06,4.896114025775857748e+00,1.013936608768478242e+00,0.000000000000000000e+00
-2.849880309397852048e+06,4.656214877160238102e+06,3.287190600463123061e+06,4.894336919001466057e+00,1.022480377953160602e+00,0.000000000000000000e+00
-2.849880260454482865e+06,4.656214887385042384e+06,3.287190600463123061e+06,4.892544902996140088e+00,1.031021033813806609e+00,0.000000000000000000e+00
-2.849880211529033724e+06,4.656214897695252672e+06,3.287190600463123061e+06,4.890737983239773712e+00,1.039558550200879949e+00,0.000000000000000000e+00
-2.849880162621654104e+06,4.656214908090838231e+06,3.287190600463123061e+06,4.888916165255757562e+00,1.048092900987762199e+00,0.000000000000000000e+00
