ref_pos_x (m),ref_pos_y (m),ref_pos_z (m)
-2.849886618250875268e+06,4.656214272941934876e+06,3.287190600463123061e+06
-2.849886568250875454e+06,4.656214272941934876e+06,3.287190600463123061e+06
-2.849886518250876106e+06,4.656214272950661369e+06,3.287190600463123061e+06
-2.849886468250882346e+06,4.656214272975969128e+06,3.287190600463123061e+06
-2.849886418250906281e+06,4.656214273024925031e+06,3.287190600463123061e+06
-2.849886368250968866e+06,4.656214273103892803e+06,3.287190600463123061e+06
-2.849886318251100369e+06,4.656214273218596354e+06,3.287190600463123061e+06
-2.849886268251342233e+06,4.656214273374189623e+06,3.287190600463123061e+06
-2.849886218251747079e+06,4.656214273575309664e+06,3.287190600463123061e+06
-2.849886168252375908e+06,4.656214273826130666e+06,3.287190600463123061e+06
-2.849886118253301829e+06,4.656214274130407721e+06,3.287190600463123061e+06
-2.849886068254605867e+06,4.656214274491522461e+06,3.287190600463123061e+06
-2.849886018256378360e+06,4.656214274912516586e+06,3.287190600463123061e+06
-2.849885968258717097e+06,4.656214275396128185e+06,3.287190600463123061e+06
-2.849885918261727784e+06,4.656214275944820605e+06,3.287190600463123061e+06
-2.849885868265522644e+06,4.656214276560811326e+06,3.287190600463123061e+06
-2.849885818270219024e+06,4.656214277246095240e+06,3.287190600463123061e+06
-2.849885768275940325e+06,4.656214278002467006e+06,3.287190600463123061e+06
-2.849885718282814138e+06,4.656214278831543401e+06,3.287190600463123061e+06
-2.849885668290973175e+06,4.656214279734776355e+06,3.287190600463123061e+06
-2.849885618300552480e+06,4.656214280713474378e+06,3.287190600463123061e+06
-2.849885568311691284e+06,4.656214281768812798e+06,3.287190600463123061e+06
-2.849885518324530683e+06,4.656214282901851460e+06,3.287190600463123061e+06
-2.849885468339215033e+06,4.656214284113540314e+06,3.287190600463123061e+06
-2.849885418355889618e+06,4.656214285404736176e+06,3.287190600463123061e+06
-2.849885368374702521e+06,4.656214286776210181e+06,3.287190600463123061e+06
-2.849885318395802751e+06,4.656214288228652440e+06,3.287190600463123061e+06
-2.849885268419340719e+06,4.656214289762686938e+06,3.287190600463123061e+06
-2.849885218445468228e+06,4.656214291378872469e+06,3.287190600463123061e+06
-2.849885168474337086e+06,4.656214293077711947e+06,3.287190600463123061e+06
-2.849885118506100494e+06,4.656214294859657064e+06,3.287190600463123061e+06
-2.849885068540912122e+06,4.656214296725112945e+06,3.287190600463123061e+06
-2.849885018578925170e+06,4.656214298674445599e+06,3.287190600463123061e+06
-2.849884968620295171e+06,4.656214300707981922e+06,3.287190600463123061e+06
-2.849884918665175792e+06,4.656214302826014347e+06,3.287190600463123061e+06
-2.849884868713722564e+06,4.656214305028806441e+06,3.287190600463123061e+06
-2.849884818766089622e+06,4.656214307316594757e+06,3.287190600463123061e+06
-2.849884768822432496e+06,4.656214309689591639e+06,3.287190600463123061e+06
-2.849884718882906251e+06,4.656214312147985213e+06,3.287190600463123061e+06
-2.849884668947665486e+06,4.656214314691945910e+06,3.287190600463123061e+06
-2.849884619016865268e+06,4.656214317321624607e+06,3.287190600463123061e+06
-2.849884569090661127e+06,4.656214320037157275e+06,3.287190600463123061e+06
-2.849884519169207197e+06,4.656214322838664055e+06,3.287190600463123061e+06
-2.849884469252658542e+06,4.656214325726252981e+06,3.287190600463123061e+06
-2.849884419341169763e+06,4.656214328700019978e+06,3.287190600463123061e+06
-2.849884369434895460e+06,4.656214331760048866e+06,3.287190600463123061e+06
-2.849884319533989765e+06,4.656214334906416014e+06,3.287190600463123061e+06
-2.849884269638607278e+06,4.656214338139188476e+06,3.287190600463123061e+06
-2.849884219748902135e+06,4.656214341458423994e+06,3.287190600463123061e+06
-2.849884169865028467e+06,4.656214344864173792e+06,3.287190600463123061e+06
-2.849884119987139944e+06,4.656214348356483504e+06,3.287190600463123061e+06
-2.849884070115390234e+06,4.656214351935393177e+06,3.287190600463123061e+06
-2.849884020249933470e+06,4.656214355600936338e+06,3.287190600463123061e+06
-2.849883970390922390e+06,4.656214359353142790e+06,3.287190600463123061e+06
-2.849883920538511593e+06,4.656214363192035817e+06,3.287190600463123061e+06
-2.849883870692853350e+06,4.656214367117638700e+06,3.287190600463123061e+06
-2.849883820854100864e+06,4.656214371129967272e+06,3.287190600463123061e+06
-2.849883771022407804e+06,4.656214375229036435e+06,3.287190600463123061e+06
-2.849883721197926905e+06,4.656214379414857365e+06,3.287190600463123061e+06
-2.849883671380810905e+06,4.656214383687440306e+06,3.287190600463123061e+06
-2.849883621571213007e+06,4.656214388046788983e+06,3.287190600463123061e+06
-2.849883571769285016e+06,4.656214392492909916e+06,3.287190600463123061e+06
-2.849883521975180134e+06,4.656214397025804035e+06,3.287190600463123061e+06
-2.849883472189051099e+06,4.656214401645471342e+06,3.287190600463123061e+06
-2.849883422411049716e+06,4.656214406351911835e+06,3.287190600463123061e+06
-2.849883372641328257e+06,4.656214411145120859e+06,3.287190600463123061e+06
-2.849883322880039923e+06,4.656214416025095619e+06,3.287190600463123061e+06
-2.849883273127335589e+06,4.656214420991829596e+06,3.287190600463123061e+06
-2.849883223383368459e+06,4.656214426045315340e+06,3.287190600463123061e+06
-2.849883173648290336e+06,4.656214431185547262e+06,3.287190600463123061e+06
-2.849883123922252562e+06,4.656214436412514187e+06,3.287190600463123061e+06
-2.849883074205407873e+06,4.656214441726206802e+06,3.287190600463123061e+06
-2.849883024497907143e+06,4.656214447126614861e+06,3.287190600463123061e+06
-2.849882974799903110e+06,4.656214452613726258e+06,3.287190600463123061e+06
-2.849882925111547112e+06,4.656214458187529817e+06,3.287190600463123061e+06
-2.849882875432990957e+06,4.656214463848011568e+06,3.287190600463123061e+06
-2.849882825764385983e+06,4.656214469595157541e+06,3.287190600463123061e+06
-2.849882776105884463e+06,4.656214475428953767e+06,3.287190600463123061e+06
-2.849882726457636803e+06,4.656214481349386275e+06,3.287190600463123061e+06
-2.849882676819795277e+06,4.656214487356438302e+06,3.287190600463123061e+06
-2.849882627192510758e+06,4.656214493450094946e+06,3.287190600463123061e+06
-2.849882577575935051e+06,4.656214499630338512e+06,3.287190600463123061e+06
-2.849882527970219497e+06,4.656214505897154100e+06,3.287190600463123061e+06
-2.849882478375514969e+06,4.656214512250522152e+06,3.287190600463123061e+06
-2.849882428791972809e+06,4.656214518690425903e+06,3.287190600463123061e+06
-2.849882379219744354e+06,4.656214525216846727e+06,3.287190600463123061e+06
-2.849882329658980947e+06,4.656214531829766929e+06,3.287190600463123061e+06
-2.849882280109832995e+06,4.656214538529166952e+06,3.287190600463123061e+06
-2.849882230572452303e+06,4.656214545315026306e+06,3.287190600463123061e+06
-2.849882181046989281e+06,4.656214552187327296e+06,3.287190600463123061e+06
-2.849882131533594802e+06,4.656214559146047570e+06,3.287190600463123061e+06
-2.849882082032420672e+06,4.656214566191168502e+06,3.287190600463123061e+06
-2.849882032543616835e+06,4.656214573322668672e+06,3.287190600463123061e+06
-2.849881983067334164e+06,4.656214580540526658e+06,3.287190600463123061e+06
-2.849881933603723999e+06,4.656214587844721042e+06,3.287190600463123061e+06
-2.849881884152936749e+06,4.656214595235230401e+06,3.287190600463123061e+06
-2.849881834715122823e+06,4.656214602712032385e+06,3.287190600463123061e+06
-2.849881785290433094e+06,4.656214610275105573e+06,3.287190600463123061e+06
-2.849881735879018437e+06,4.656214617924425751e+06,3.287190600463123061e+06
-2.849881686481029261e+06,4.656214625659970567e+06,3.287190600463123061e+06
-2.849881637096615974e+06,4.656214633481716737e+06,3.287190600463123061e+06
-2.849881587725928985e+06,4.656214641389640048e+06,3.287190600463123061e+06
-2.849881538369118702e+06,4.656214649383718148e+06,3.287190600463123061e+06
-2.849881489026335534e+06,4.656214657463925891e+06,3.287190600463123061e+06
-2.849881439697729889e+06,4.656214665630239062e+06,3.287190600463123061e+06
-2.849881390383452177e+06,4.656214673882632516e+06,3.287190600463123061e+06
-2.849881341083652340e+06,4.656214682221082039e+06,3.287190600463123061e+06
-2.849881291798480786e+06,4.656214690645562485e+06,3.287190600463123061e+06
-2.849881242528087460e+06,4.656214699156046845e+06,3.287190600463123061e+06
-2.849881193272622768e+06,4.656214707752510905e+06,3.287190600463123061e+06
-2.849881144032236654e+06,4.656214716434927657e+06,3.287190600463123061e+06
-2.849881094807078596e+06,4.656214725203271024e+06,3.287190600463123061e+06
-2.849881045597299468e+06,4.656214734057514928e+06,3.287190600463123061e+06
-2.849880996403048746e+06,4.656214742997631431e+06,3.287190600463123061e+06
-2.849880947224475909e+06,4.656214752023593523e+06,3.287190600463123061e+06
-2.849880898061731365e+06,4.656214761135374196e+06,3.287190600463123061e+06
-2.849880848914965056e+06,4.656214770332946442e+06,3.287190600463123061e+06
-2.849880799784325995e+06,4.656214779616280459e+06,3.287190600463123061e+06
-2.849880750669964124e+06,4.656214788985350169e+06,3.287190600463123061e+06
-2.849880701572028920e+06,4.656214798440124840e+06,3.287190600463123061e+06
-2.849880652490670327e+06,4.656214807980577461e+06,3.287190600463123061e+06
-2.849880603426037356e+06,4.656214817606678233e+06,3.287190600463123061e+06
-2.849880554378280416e+06,4.656214827318398282e+06,3.287190600463123061e+06
-2.849880505347547587e+06,4.656214837115707807e+06,3.287190600463123061e+06
-2.849880456333989277e+06,4.656214846998576075e+06,3.287190600463123061e+06
-2.849880407337754499e+06,4.656214856966975145e+06,3.287190600463123061e+06
-2.849880358358992264e+06,4.656214867020872422e+06,3.287190600463123061e+06
-2.849880309397852048e+06,4.656214877160238102e+06,3.287190600463123061e+06
-2.849880260454482865e+06,4.656214887385042384e+06,3.287190600463123061e+06
-2.849880211529033724e+06,4.656214897695252672e+06,3.287190600463123061e+06
-2.849880162621654104e+06,4.656214908090838231e+06,3.287190600463123061e+06
-2.849880113732492086e+06,4.656214918571767397e+06,3.287190600463123061e+06
-2.849880064861697610e+06,4.656214929138007574e+06,3.287190600463123061e+06
-2.849880016009419225e+06,4.656214939789528027e+06,3.287190600463123061e+06
-2.849879967175805476e+06,4.656214950526294298e+06,3.287190600463123061e+06
-2.849879918361005373e+06,4.656214961348275654e+06,3.287190600463123061e+06
-2.849879869565166999e+06,4.656214972255438566e+06,3.287190600463123061e+06
-2.849879820788440295e+06,4.656214983247749507e+06,3.287190600463123061e+06
-2.849879772030972410e+06,4.656214994325174950e+06,3.287190600463123061e+06
-2.849879723292912822e+06,4.656215005487680435e+06,3.287190600463123061e+06
-2.849879674574409612e+06,4.656215016735233366e+06,3.287190600463123061e+06
-2.849879625875611324e+06,4.656215028067799285e+06,3.287190600463123061e+06
-2.849879577196666505e+06,4.656215039485342801e+06,3.287190600463123061e+06
-2.849879528537722770e+06,4.656215050987830386e+06,3.287190600463123061e+06
-2.849879479898928665e+06,4.656215062575225718e+06,3.287190600463123061e+06
-2.849879431280432735e+06,4.656215074247494340e+06,3.287190600463123061e+06
-2.849879382682383060e+06,4.656215086004599929e+06,3.287190600463123061e+06
-2.849879334104926791e+06,4.656215097846507095e+06,3.287190600463123061e+06
-2.849879285548212938e+06,4.656215109773180448e+06,3.287190600463123061e+06
-2.849879237012389116e+06,4.656215121784582734e+06,3.287190600463123061e+06
-2.849879188497602474e+06,4.656215133880677633e+06,3.287190600463123061e+06
-2.849879140004002023e+06,4.656215146061427891e+06,3.287190600463123061e+06
-2.849879091531734448e+06,4.656215158326797187e+06,3.287190600463123061e+06
-2.849879043080947828e+06,4.656215170676748268e+06,3.287190600463123061e+06
-2.849878994651789777e+06,4.656215183111242950e+06,3.287190600463123061e+06
-2.849878946244407911e+06,4.656215195630243048e+06,3.287190600463123061e+06
-2.849878897858949378e+06,4.656215208233711310e+06,3.287190600463123061e+06
-2.849878849495561793e+06,4.656215220921608619e+06,3.287190600463123061e+06
-2.849878801154392306e+06,4.656215233693895862e+06,3.287190600463123061e+06
-2.849878752835588530e+06,4.656215246550535783e+06,3.287190600463123061e+06
-2.849878704539297149e+06,4.656215259491488338e+06,3.287190600463123061e+06
-2.849878656265665311e+06,4.656215272516713478e+06,3.287190600463123061e+06
-2.849878608014840633e+06,4.656215285626173019e+06,3.287190600463123061e+06
-2.849878559786969796e+06,4.656215298819825053e+06,3.287190600463123061e+06
-2.849878511582199484e+06,4.656215312097631395e+06,3.287190600463123061e+06
-2.849878463400676847e+06,4.656215325459550135e+06,3.287190600463123061e+06
-2.849878415242548566e+06,4.656215338905541226e+06,3.287190600463123061e+06
-2.849878367107961327e+06,4.656215352435563691e+06,3.287190600463123061e+06
-2.849878318997061811e+06,4.656215366049575619e+06,3.287190600463123061e+06
-2.849878270909996238e+06,4.656215379747536965e+06,3.287190600463123061e+06
-2.849878222846911289e+06,4.656215393529403955e+06,3.287190600463123061e+06
-2.849878174807953648e+06,4.656215407395137474e+06,3.287190600463123061e+06
-2.849878126793269534e+06,4.656215421344692819e+06,3.287190600463123061e+06
-2.849878078803004697e+06,4.656215435378028080e+06,3.287190600463123061e+06
-2.849878030837306287e+06,4.656215449495100416e+06,3.287190600463123061e+06
-2.849877982896319591e+06,4.656215463695867918e+06,3.287190600463123061e+06
-2.849877934980190825e+06,4.656215477980285883e+06,3.287190600463123061e+06
-2.849877887089065742e+06,4.656215492348312400e+06,3.287190600463123061e+06
-2.849877839223091025e+06,4.656215506799901836e+06,3.287190600463123061e+06
-2.849877791382411961e+06,4.656215521335012279e+06,3.287190600463123061e+06
-2.849877743567173835e+06,4.656215535953597166e+06,3.287190600463123061e+06
-2.849877695777523331e+06,4.656215550655613653e+06,3.287190600463123061e+06
-2.849877648013605271e+06,4.656215565441016108e+06,3.287190600463123061e+06
-2.849877600275565404e+06,4.656215580309759825e+06,3.287190600463123061e+06
-2.849877552563549019e+06,4.656215595261799172e+06,3.287190600463123061e+06
-2.849877504877701402e+06,4.656215610297089443e+06,3.287190600463123061e+06
-2.849877457218167838e+06,4.656215625415584072e+06,3.287190600463123061e+06
-2.849877409585093614e+06,4.656215640617236495e+06,3.287190600463123061e+06
-2.849877361978624016e+06,4.656215655902002007e+06,3.287190600463123061e+06
-2.849877314398903865e+06,4.656215671269833110e+06,3.287190600463123061e+06
-2.849877266846077982e+06,4.656215686720682308e+06,3.287190600463123061e+06
-2.849877219320291653e+06,4.656215702254503965e+06,3.287190600463123061e+06
-2.849877171821689233e+06,4.656215717871249653e+06,3.287190600463123061e+06
-2.849877124350415077e+06,4.656215733570872806e+06,3.287190600463123061e+06
-2.849877076906614471e+06,4.656215749353324994e+06,3.287190600463123061e+06
-2.849877029490431771e+06,4.656215765218557790e+06,3.287190600463123061e+06
-2.849876982102011330e+06,4.656215781166522764e+06,3.287190600463123061e+06
-2.849876934741497505e+06,4.656215797197172418e+06,3.287190600463123061e+06
-2.849876887409034185e+06,4.656215813310457394e+06,3.287190600463123061e+06
-2.849876840104766656e+06,4.656215829506328329e+06,3.287190600463123061e+06
-2.849876792828837875e+06,4.656215845784735866e+06,3.287190600463123061e+06
-2.849876745581392199e+06,4.656215862145630643e+06,3.287190600463123061e+06
-2.849876698362573516e+06,4.656215878588963300e+06,3.287190600463123061e+06
-2.849876651172526181e+06,4.656215895114682615e+06,3.287190600463123061e+06
-2.849876604011393152e+06,4.656215911722739227e+06,3.287190600463123061e+06
-2.849876556879318319e+06,4.656215928413082846e+06,3.287190600463123061e+06
-2.849876509776446037e+06,4.656215945185661316e+06,3.287190600463123061e+06
-2.849876462702918798e+06,4.656215962040423416e+06,3.287190600463123061e+06
-2.849876415658880025e+06,4.656215978977319784e+06,3.287190600463123061e+06
-2.849876368644474074e+06,4.656215995996297337e+06,3.287190600463123061e+06
-2.849876321659842972e+06,4.656216013097304851e+06,3.287190600463123061e+06
-2.849876274705130141e+06,4.656216030280289240e+06,3.287190600463123061e+06
-2.849876227780479006e+06,4.656216047545199282e+06,3.287190600463123061e+06
-2.849876180886032525e+06,4.656216064891981892e+06,3.287190600463123061e+06
-2.849876134021932725e+06,4.656216082320583984e+06,3.287190600463123061e+06
-2.849876087188323494e+06,4.656216099830953404e+06,3.287190600463123061e+06
-2.849876040385346394e+06,4.656216117423035204e+06,3.287190600463123061e+06
-2.849875993613144848e+06,4.656216135096778162e+06,3.287190600463123061e+06
-2.849875946871861350e+06,4.656216152852125466e+06,3.287190600463123061e+06
-2.849875900161637459e+06,4.656216170689025894e+06,3.287190600463123061e+06
-2.849875853482616134e+06,4.656216188607423566e+06,3.287190600463123061e+06
-2.849875806834939402e+06,4.656216206607263535e+06,3.287190600463123061e+06
-2.849875760218749288e+06,4.656216224688492715e+06,3.287190600463123061e+06
-2.849875713634187821e+06,4.656216242851053365e+06,3.287190600463123061e+06
-2.849875667081397027e+06,4.656216261094893329e+06,3.287190600463123061e+06
-2.849875620560518932e+06,4.656216279419953935e+06,3.287190600463123061e+06
-2.849875574071694631e+06,4.656216297826182097e+06,3.287190600463123061e+06
-2.849875527615066152e+06,4.656216316313520074e+06,3.287190600463123061e+06
-2.849875481190774590e+06,4.656216334881911986e+06,3.287190600463123061e+06
-2.849875434798961971e+06,4.656216353531301022e+06,3.287190600463123061e+06
-2.849875388439769391e+06,4.656216372261630371e+06,3.287190600463123061e+06
-2.849875342113337480e+06,4.656216391072843224e+06,3.287190600463123061e+06
-2.849875295819808263e+06,4.656216409964882769e+06,3.287190600463123061e+06
-2.849875249559322372e+06,4.656216428937691264e+06,3.287190600463123061e+06
-2.849875203332020901e+06,4.656216447991210036e+06,3.287190600463123061e+06
-2.849875157138044015e+06,4.656216467125381343e+06,3.287190600463123061e+06
-2.849875110977533273e+06,4.656216486340147443e+06,3.287190600463123061e+06
-2.849875064850628842e+06,4.656216505635449663e+06,3.287190600463123061e+06
-2.849875018757471349e+06,4.656216525011229329e+06,3.287190600463123061e+06
-2.849874972698200960e+06,4.656216544467426836e+06,3.287190600463123061e+06
-2.849874926672958303e+06,4.656216564003982581e+06,3.287190600463123061e+06
-2.849874880681883544e+06,4.656216583620838821e+06,3.287190600463123061e+06
-2.849874834725116380e+06,4.656216603317934088e+06,3.287190600463123061e+06
-2.849874788802797440e+06,4.656216623095209710e+06,3.287190600463123061e+06
-2.849874742915065959e+06,4.656216642952604219e+06,3.287190600463123061e+06
-2.849874697062062565e+06,4.656216662890057079e+06,3.287190600463123061e+06
-2.849874651243926026e+06,4.656216682907508686e+06,3.287190600463123061e+06
-2.849874605460796505e+06,4.656216703004897572e+06,3.287190600463123061e+06
-2.849874559712812770e+06,4.656216723182162270e+06,3.287190600463123061e+06
-2.849874514000114985e+06,4.656216743439242244e+06,3.287190600463123061e+06
-2.849874468322842382e+06,4.656216763776074164e+06,3.287190600463123061e+06
-2.849874422681133263e+06,4.656216784192597494e+06,3.287190600463123061e+06
-2.849874377075127792e+06,4.656216804688748904e+06,3.287190600463123061e+06
-2.849874331504963804e+06,4.656216825264466926e+06,3.287190600463123061e+06
-2.849874285970780533e+06,4.656216845919688232e+06,3.287190600463123061e+06
-2.849874240472717211e+06,4.656216866654350422e+06,3.287190600463123061e+06
-2.849874195010911673e+06,4.656216887468390167e+06,3.287190600463123061e+06
-2.849874149585502688e+06,4.656216908361743204e+06,3.287190600463123061e+06
-2.849874104196629021e+06,4.656216929334348068e+06,3.287190600463123061e+06
-2.849874058844428044e+06,4.656216950386138633e+06,3.287190600463123061e+06
-2.849874013529038988e+06,4.656216971517051570e+06,3.287190600463123061e+06
-2.849873968250598758e+06,4.656216992727022618e+06,3.287190600463123061e+06
