ref_vel_x (m/s),ref_vel_y (m/s),ref_vel_z (m/s)
5.000000000000000000e+00,0.000000000000000000e+00,0.000000000000000000e+00
5.009999999999999787e+00,9.999999999999998473e-03,9.999999999999998473e-03
5.028999999999999915e+00,2.899999999999999453e-02,2.899999999999999453e-02
5.056099999999999817e+00,5.609999999999998321e-02,5.609999999999998321e-02
5.090489999999999959e+00,9.048999999999997323e-02,9.048999999999997323e-02
5.131440999999999697e+00,1.314409999999999745e-01,1.314409999999999745e-01
5.178296899999999425e+00,1.782968999999999804e-01,1.782968999999999804e-01
5.230467209999999589e+00,2.304672099999999779e-01,2.304672099999999779e-01
5.287420488999999613e+00,2.874204889999999457e-01,2.874204889999999457e-01
5.348678440099999598e+00,3.486784400999999312e-01,3.486784400999999312e-01
5.413810596089999372e+00,4.138105960899999269e-01,4.138105960899999269e-01
5.482429536480998955e+00,4.824295364809999542e-01,4.824295364809999542e-01
5.554186582832898900e+00,5.541865828329000099e-01,5.541865828329000099e-01
5.628767924549609170e+00,6.287679245496100577e-01,6.287679245496100577e-01
5.705891132094648377e+00,7.058911320946490431e-01,7.058911320946490431e-01
5.785302018885183806e+00,7.853020188851841388e-01,7.853020188851841388e-01
5.866771816996665834e+00,8.667718169966657227e-01,8.667718169966657227e-01
5.950094635296999002e+00,9.500946352969991127e-01,9.500946352969991127e-01
6.035085171767298640e+00,1.035085171767299084e+00,1.035085171767299084e+00
6.121576654590568545e+00,1.121576654590569211e+00,1.121576654590569211e+00
6.209418989131511246e+00,1.209418989131512134e+00,1.209418989131512134e+00
6.298477090218359997e+00,1.298477090218360885e+00,1.298477090218360885e+00
6.388629381196524015e+00,1.388629381196524681e+00,1.388629381196524681e+00
6.479766443076871774e+00,1.479766443076872218e+00,1.479766443076872218e+00
6.571789798769184898e+00,1.571789798769184898e+00,1.571789798769184898e+00
6.664610818892266586e+00,1.664610818892266364e+00,1.664610818892266364e+00
6.758149737003039448e+00,1.758149737003039670e+00,1.758149737003039670e+00
6.852334763302735610e+00,1.852334763302735610e+00,1.852334763302735610e+00
6.947101286972461764e+00,1.947101286972461986e+00,1.947101286972461986e+00
7.042391158275215446e+00,2.042391158275215890e+00,2.042391158275215890e+00
7.138152042447694079e+00,2.138152042447694079e+00,2.138152042447694079e+00
7.234336838202924724e+00,2.234336838202924724e+00,2.234336838202924724e+00
7.330903154382632181e+00,2.330903154382632181e+00,2.330903154382632181e+00
7.427812838944369389e+00,2.427812838944368945e+00,2.427812838944368945e+00
7.525031555049932486e+00,2.525031555049932042e+00,2.525031555049932042e+00
7.622528399544939326e+00,2.622528399544938882e+00,2.622528399544938882e+00
7.720275559590445091e+00,2.720275559590445091e+00,2.720275559590445091e+00
7.818248003631400600e+00,2.818248003631400600e+00,2.818248003631400600e+00
7.916423203268260878e+00,2.916423203268260433e+00,2.916423203268260433e+00
8.014780882941435536e+00,3.014780882941434204e+00,3.014780882941434204e+00
8.113302794647292870e+00,3.113302794647290650e+00,3.113302794647290650e+00
8.211972515182564436e+00,3.211972515182561771e+00,3.211972515182561771e+00
8.310775263664307744e+00,3.310775263664305523e+00,3.310775263664305523e+00
8.409697737297877396e+00,3.409697737297875175e+00,3.409697737297875175e+00
8.508727963568089692e+00,3.508727963568087471e+00,3.508727963568087471e+00
8.607855167211280190e+00,3.607855167211278857e+00,3.607855167211278857e+00
8.707069650490153023e+00,3.707069650490150803e+00,3.707069650490150803e+00
8.806362685441138538e+00,3.806362685441135874e+00,3.806362685441135874e+00
8.905726416897024933e+00,3.905726416897022268e+00,3.905726416897022268e+00
9.005153775207322298e+00,4.005153775207319633e+00,4.005153775207319633e+00
9.104638397686590778e+00,4.104638397686587226e+00,4.104638397686587226e+00
9.204174557917932376e+00,4.204174557917928823e+00,4.204174557917928823e+00
9.303757102126139600e+00,4.303757102126136047e+00,4.303757102126136047e+00
9.403381391913525178e+00,4.403381391913522513e+00,4.403381391913522513e+00
9.503043252722173762e+00,4.503043252722170209e+00,4.503043252722170209e+00
9.602738927449957274e+00,4.602738927449952833e+00,4.602738927449952833e+00
9.702465034704962576e+00,4.702465034704957247e+00,4.702465034704957247e+00
9.802218531234466070e+00,4.802218531234461629e+00,4.802218531234461629e+00
9.901996678111020245e+00,4.901996678111015804e+00,4.901996678111015804e+00
1.000179701029991897e+01,5.001797010299914525e+00,5.001797010299914525e+00
1.010161730926992796e+01,5.101617309269923517e+00,5.101617309269923517e+00
1.020145557834293548e+01,5.201455578342931041e+00,5.201455578342931041e+00
1.030131002050864275e+01,5.301310020508638310e+00,5.301310020508638310e+00
1.040117901845777837e+01,5.401179018457774816e+00,5.401179018457774816e+00
1.050106111661200181e+01,5.501061116611997370e+00,5.501061116611997370e+00
1.060095500495080145e+01,5.600955004950797900e+00,5.600955004950797900e+00
1.070085950445572109e+01,5.700859504455718429e+00,5.700859504455718429e+00
1.080077355401014927e+01,5.800773554010146604e+00,5.800773554010146604e+00
1.090069619860913441e+01,5.900696198609131748e+00,5.900696198609131748e+00
1.100062657874822136e+01,6.000626578748218698e+00,6.000626578748218698e+00
1.110056392087339994e+01,6.100563920873397272e+00,6.100563920873397272e+00
1.120050752878606026e+01,6.200507528786057598e+00,6.200507528786057598e+00
1.130045677590745434e+01,6.300456775907451679e+00,6.300456775907451679e+00
1.140041109831670951e+01,6.400411098316706848e+00,6.400411098316706848e+00
1.150036998848503877e+01,6.500369988485036110e+00,6.500369988485036110e+00
1.160033298963653614e+01,6.600332989636532588e+00,6.600332989636532588e+00
1.170029969067288356e+01,6.700299690672879116e+00,6.700299690672879116e+00
1.180026972160559495e+01,6.800269721605591400e+00,6.800269721605591400e+00
1.190024274944503624e+01,6.900242749445032686e+00,6.900242749445032686e+00
1.200021847450053336e+01,7.000218474500529808e+00,7.000218474500529808e+00
1.210019662705048127e+01,7.100196627050476827e+00,7.100196627050476827e+00
1.220017696434543453e+01,7.200176964345429198e+00,7.200176964345429198e+00
1.230015926791089242e+01,7.300159267910886207e+00,7.300159267910886207e+00
1.240014334111980432e+01,7.400143341119798102e+00,7.400143341119798102e+00
1.250012900700782481e+01,7.500129007007818593e+00,7.500129007007818593e+00
1.260011610630704304e+01,7.600116106307036823e+00,7.600116106307036823e+00
1.270010449567633870e+01,7.700104495676333372e+00,7.700104495676333372e+00
1.280009404610870583e+01,7.800094046108700496e+00,7.800094046108700496e+00
1.290008464149783585e+01,7.900084641497830518e+00,7.900084641497830518e+00
1.300007617734805265e+01,8.000076177348047324e+00,8.000076177348047324e+00
1.310006855961324845e+01,8.100068559613243124e+00,8.100068559613243124e+00
1.320006170365192411e+01,8.200061703651918776e+00,8.200061703651918776e+00
1.330005553328673251e+01,8.300055533286727183e+00,8.300055533286727183e+00
1.340004997995806058e+01,8.400049979958055246e+00,8.400049979958055246e+00
1.350004498196225455e+01,8.500044981962249224e+00,8.500044981962249224e+00
1.360004048376602981e+01,8.600040483766024479e+00,8.600040483766024479e+00
1.370003643538942839e+01,8.700036435389423062e+00,8.700036435389423062e+00
1.380003279185048548e+01,8.800032791850480152e+00,8.800032791850480152e+00
1.390002951266543718e+01,8.900029512665431852e+00,8.900029512665431852e+00
1.400002656139889368e+01,9.000026561398888347e+00,9.000026561398888347e+00
1.410002390525900573e+01,9.100023905259000401e+00,9.100023905259000401e+00
1.420002151473310548e+01,9.200021514733100148e+00,9.200021514733100148e+00
1.430001936325979628e+01,9.300019363259790950e+00,9.300019363259790950e+00
1.440001742693381814e+01,9.400017426933812814e+00,9.400017426933812814e+00
1.450001568424043796e+01,9.500015684240432634e+00,9.500015684240432634e+00
1.460001411581639452e+01,9.600014115816389193e+00,9.600014115816389193e+00
1.470001270423475681e+01,9.700012704234751482e+00,9.700012704234751482e+00
1.480001143381128159e+01,9.800011433811276262e+00,9.800011433811276262e+00
1.490001029043015457e+01,9.900010290430149240e+00,9.900010290430149240e+00
1.500000926138713986e+01,1.000000926138713453e+01,1.000000926138713453e+01
1.510000833524842712e+01,1.010000833524842179e+01,1.010000833524842179e+01
1.520000750172358472e+01,1.020000750172357940e+01,1.020000750172357940e+01
1.530000675155122636e+01,1.030000675155122103e+01,1.030000675155122103e+01
1.540000607639610486e+01,1.040000607639609953e+01,1.040000607639609953e+01
1.550000546875649476e+01,1.050000546875648944e+01,1.050000546875648944e+01
1.560000492188084564e+01,1.060000492188084031e+01,1.060000492188084031e+01
1.570000442969276122e+01,1.070000442969275589e+01,1.070000442969275589e+01
1.580000398672348538e+01,1.080000398672348005e+01,1.080000398672348005e+01
1.590000358805113834e+01,1.090000358805113301e+01,1.090000358805113301e+01
1.600000322924602614e+01,1.100000322924602081e+01,1.100000322924602081e+01
1.610000290632142494e+01,1.110000290632141962e+01,1.110000290632141962e+01
1.620000261568928224e+01,1.120000261568927868e+01,1.120000261568927868e+01
1.630000235412035536e+01,1.130000235412035181e+01,1.130000235412035181e+01
1.640000211870832203e+01,1.140000211870831670e+01,1.140000211870831670e+01
1.650000190683748968e+01,1.150000190683748613e+01,1.150000190683748613e+01
1.660000171615374143e+01,1.160000171615373787e+01,1.160000171615373787e+01
1.670000154453836672e+01,1.170000154453836494e+01,1.170000154453836494e+01
1.680000139008453175e+01,1.180000139008452820e+01,1.180000139008452820e+01
1.690000125107608042e+01,1.190000125107607509e+01,1.190000125107607509e+01
1.700000112596847401e+01,1.200000112596846868e+01,1.200000112596846868e+01
1.710000101337162803e+01,1.210000101337162270e+01,1.210000101337162270e+01
1.720000091203446502e+01,1.220000091203446146e+01,1.220000091203446146e+01
1.730000082083101987e+01,1.230000082083101631e+01,1.230000082083101631e+01
1.740000073874792008e+01,1.240000073874791475e+01,1.240000073874791475e+01
1.750000066487313077e+01,1.250000066487312367e+01,1.250000066487312367e+01
1.760000059838581876e+01,1.260000059838581166e+01,1.260000059838581166e+01
1.770000053854723987e+01,1.270000053854723099e+01,1.270000053854723099e+01
1.780000048469251794e+01,1.280000048469250906e+01,1.280000048469250906e+01
1.790000043622326587e+01,1.290000043622325876e+01,1.290000043622325876e+01
1.800000039260094198e+01,1.300000039260093310e+01,1.300000039260093310e+01
1.810000035334084956e+01,1.310000035334084068e+01,1.310000035334084068e+01
1.820000031800676510e+01,1.320000031800675799e+01,1.320000031800675799e+01
1.830000028620608887e+01,1.330000028620608354e+01,1.330000028620608354e+01
1.840000025758548219e+01,1.340000025758547508e+01,1.340000025758547508e+01
1.850000023182693454e+01,1.350000023182692743e+01,1.350000023182692743e+01
1.860000020864424286e+01,1.360000020864423576e+01,1.360000020864423576e+01
1.870000018777982120e+01,1.370000018777981232e+01,1.370000018777981232e+01
1.880000016900184079e+01,1.380000016900183191e+01,1.380000016900183191e+01
1.890000015210165785e+01,1.390000015210164896e+01,1.390000015210164896e+01
1.900000013689149370e+01,1.400000013689148481e+01,1.400000013689148481e+01
1.910000012320234575e+01,1.410000012320233687e+01,1.410000012320233687e+01
1.920000011088211167e+01,1.420000011088210456e+01,1.420000011088210456e+01
1.930000009979390185e+01,1.430000009979389475e+01,1.430000009979389475e+01
1.940000008981451174e+01,1.440000008981450641e+01,1.440000008981450641e+01
1.950000008083306113e+01,1.450000008083305580e+01,1.450000008083305580e+01
1.960000007274975786e+01,1.460000007274975076e+01,1.460000007274975076e+01
1.970000006547478222e+01,1.470000006547477689e+01,1.470000006547477689e+01
1.980000005892730641e+01,1.480000005892729931e+01,1.480000005892729931e+01
1.990000005303457797e+01,1.490000005303457087e+01,1.490000005303457087e+01
2.000000004773112039e+01,1.500000004773111506e+01,1.500000004773111506e+01
2.010000004295800835e+01,1.510000004295800480e+01,1.510000004295800480e+01
2.020000003866221050e+01,1.520000003866220517e+01,1.520000003866220517e+01
2.030000003479599258e+01,1.530000003479598547e+01,1.530000003479598547e+01
2.040000003131639517e+01,1.540000003131638806e+01,1.540000003131638806e+01
2.050000002818475764e+01,1.550000002818475053e+01,1.550000002818475053e+01
2.060000002536628472e+01,1.560000002536627584e+01,1.560000002536627584e+01
2.070000002282965923e+01,1.570000002282964857e+01,1.570000002282964857e+01
2.080000002054669395e+01,1.580000002054668506e+01,1.580000002054668506e+01
2.090000001849202604e+01,1.590000001849201716e+01,1.590000001849201716e+01
2.100000001664282578e+01,1.600000001664281513e+01,1.600000001664281513e+01
2.110000001497854427e+01,1.610000001497853361e+01,1.610000001497853361e+01
2.120000001348069318e+01,1.620000001348068253e+01,1.620000001348068253e+01
2.130000001213262451e+01,1.630000001213261385e+01,1.630000001213261385e+01
2.140000001091936355e+01,1.640000001091935289e+01,1.640000001091935289e+01
2.150000000982742776e+01,1.650000000982741710e+01,1.650000000982741710e+01
2.160000000884468818e+01,1.660000000884467752e+01,1.660000000884467752e+01
2.170000000796022022e+01,1.670000000796020956e+01,1.670000000796020956e+01
2.180000000716420061e+01,1.680000000716418995e+01,1.680000000716418995e+01
2.190000000644778311e+01,1.690000000644777245e+01,1.690000000644777245e+01
2.200000000580300608e+01,1.700000000580299542e+01,1.700000000580299542e+01
2.210000000522270724e+01,1.710000000522269659e+01,1.710000000522269659e+01
2.220000000470043844e+01,1.720000000470042778e+01,1.720000000470042778e+01
2.230000000423039808e+01,1.730000000423038742e+01,1.730000000423038742e+01
2.240000000380736012e+01,1.740000000380734946e+01,1.740000000380734946e+01
2.250000000342662432e+01,1.750000000342661366e+01,1.750000000342661366e+01
2.260000000308396295e+01,1.760000000308395229e+01,1.760000000308395229e+01
2.270000000277556751e+01,1.770000000277555685e+01,1.770000000277555685e+01
2.280000000249801317e+01,1.780000000249800252e+01,1.780000000249800252e+01
2.290000000224821264e+01,1.790000000224820198e+01,1.790000000224820198e+01
2.300000000202339123e+01,1.800000000202338413e+01,1.800000000202338413e+01
2.310000000182105495e+01,1.810000000182104785e+01,1.810000000182104785e+01
2.320000000163895137e+01,1.820000000163894427e+01,1.820000000163894427e+01
2.330000000147505901e+01,1.830000000147505190e+01,1.830000000147505190e+01
2.340000000132755531e+01,1.840000000132754820e+01,1.840000000132754820e+01
2.350000000119480248e+01,1.850000000119479537e+01,1.850000000119479537e+01
2.360000000107532259e+01,1.860000000107531548e+01,1.860000000107531548e+01
2.370000000096779047e+01,1.870000000096778336e+01,1.870000000096778336e+01
2.380000000087101242e+01,1.880000000087100531e+01,1.880000000087100531e+01
2.390000000078391196e+01,1.890000000078390485e+01,1.890000000078390485e+01
2.400000000070552275e+01,1.900000000070551565e+01,1.900000000070551565e+01
2.410000000063497083e+01,1.910000000063496373e+01,1.910000000063496373e+01
2.420000000057147460e+01,1.920000000057146750e+01,1.920000000057146750e+01
2.430000000051432707e+01,1.930000000051431996e+01,1.930000000051431996e+01
2.440000000046289585e+01,1.940000000046288875e+01,1.940000000046288875e+01
2.450000000041660897e+01,1.950000000041660186e+01,1.950000000041660186e+01
2.460000000037494772e+01,1.960000000037494061e+01,1.960000000037494061e+01
2.470000000033745380e+01,1.970000000033744669e+01,1.970000000033744669e+01
2.480000000030370799e+01,1.980000000030370089e+01,1.980000000030370089e+01
2.490000000027333726e+01,1.990000000027333016e+01,1.990000000027333016e+01
2.500000000024600411e+01,2.000000000024599700e+01,2.000000000024599700e+01
2.510000000022140298e+01,2.010000000022139588e+01,2.010000000022139588e+01
2.520000000019926389e+01,2.020000000019925679e+01,2.020000000019925679e+01
2.530000000017933814e+01,2.030000000017933104e+01,2.030000000017933104e+01
2.540000000016140547e+01,2.040000000016139836e+01,2.040000000016139836e+01
2.550000000014526691e+01,2.050000000014525980e+01,2.050000000014525980e+01
2.560000000013074128e+01,2.060000000013073418e+01,2.060000000013073418e+01
2.570000000011766872e+01,2.070000000011766161e+01,2.070000000011766161e+01
2.580000000010590355e+01,2.080000000010589645e+01,2.080000000010589645e+01
2.590000000009531433e+01,2.090000000009530723e+01,2.090000000009530723e+01
2.600000000008578382e+01,2.100000000008577672e+01,2.100000000008577672e+01
2.610000000007720544e+01,2.110000000007719834e+01,2.110000000007719834e+01
2.620000000006948682e+01,2.120000000006947971e+01,2.120000000006947971e+01
2.630000000006253913e+01,2.130000000006253202e+01,2.130000000006253202e+01
2.640000000005628777e+01,2.140000000005628067e+01,2.140000000005628067e+01
2.650000000005066170e+01,2.150000000005065459e+01,2.150000000005065459e+01
2.660000000004559695e+01,2.160000000004558984e+01,2.160000000004558984e+01
2.670000000004104024e+01,2.170000000004103313e+01,2.170000000004103313e+01
2.680000000003693827e+01,2.180000000003693117e+01,2.180000000003693117e+01
2.690000000003324487e+01,2.190000000003323777e+01,2.190000000003323777e+01
2.700000000002992095e+01,2.200000000002991385e+01,2.200000000002991385e+01
2.710000000002693099e+01,2.210000000002692389e+01,2.210000000002692389e+01
2.720000000002423945e+01,2.220000000002423235e+01,2.220000000002423235e+01
2.730000000002181793e+01,2.230000000002181082e+01,2.230000000002181082e+01
2.740000000001963798e+01,2.240000000001963087e+01,2.240000000001963087e+01
2.750000000001767475e+01,2.250000000001766765e+01,2.250000000001766765e+01
2.760000000001591047e+01,2.260000000001590337e+01,2.260000000001590337e+01
2.770000000001432028e+01,2.270000000001431317e+01,2.270000000001431317e+01
2.780000000001288996e+01,2.280000000001288285e+01,2.280000000001288285e+01
2.790000000001160174e+01,2.290000000001159464e+01,2.290000000001159464e+01
2.800000000001044143e+01,2.300000000001043432e+01,2.300000000001043432e+01
2.810000000000939835e+01,2.310000000000939124e+01,2.310000000000939124e+01
2.820000000000845830e+01,2.320000000000845120e+01,2.320000000000845120e+01
2.830000000000761418e+01,2.330000000000760707e+01,2.330000000000760707e+01
2.840000000000685532e+01,2.340000000000684821e+01,2.340000000000684821e+01
2.850000000000617106e+01,2.350000000000616396e+01,2.350000000000616396e+01
2.860000000000555431e+01,2.360000000000554721e+01,2.360000000000554721e+01
2.870000000000500151e+01,2.370000000000499440e+01,2.370000000000499440e+01
2.880000000000450200e+01,2.380000000000449489e+01,2.380000000000449489e+01
2.890000000000405223e+01,2.390000000000404512e+01,2.390000000000404512e+01
2.900000000000364864e+01,2.400000000000364153e+01,2.400000000000364153e+01
2.910000000000328413e+01,2.410000000000327702e+01,2.410000000000327702e+01
2.920000000000295515e+01,2.420000000000294804e+01,2.420000000000294804e+01
2.930000000000266169e+01,2.430000000000265459e+01,2.430000000000265459e+01
2.940000000000239666e+01,2.440000000000238956e+01,2.440000000000238956e+01
2.950000000000215650e+01,2.450000000000214939e+01,2.450000000000214939e+01
2.960000000000194120e+01,2.460000000000193410e+01,2.460000000000193410e+01
2.970000000000174722e+01,2.470000000000174012e+01,2.470000000000174012e+01
2.980000000000157456e+01,2.480000000000156746e+01,2.480000000000156746e+01
2.990000000000141966e+01,2.490000000000141256e+01,2.490000000000141256e+01
3.000000000000127898e+01,2.500000000000127187e+01,2.500000000000127187e+01
3.010000000000115250e+01,2.510000000000114539e+01,2.510000000000114539e+01
3.020000000000103668e+01,2.520000000000102958e+01,2.520000000000102958e+01
3.030000000000093507e+01,2.530000000000092797e+01,2.530000000000092797e+01
3.040000000000084412e+01,2.540000000000083702e+01,2.540000000000083702e+01
3.050000000000076028e+01,2.550000000000075318e+01,2.550000000000075318e+01
3.060000000000068709e+01,2.560000000000067999e+01,2.560000000000067999e+01
